#Parameters = {CH=0.035; FL=16.5; FW=2.24; NotchLength=10.47; NotchWidth=1; PL=28.027; PW=36.415; SH=1.43; SL=61; SW=64; StripW=2.24; k=6.26}
#"Frequency / GHz"	"S1,1 (NotchWidth=1) [Magnitude]"
#---------------------------------------------------
1.7999999523163	-0.0014672502138389
1.8013999462128	-0.0078583021934037
1.8028000593185	-0.015300531121147
1.8042000532150	-0.023638292803198
1.8056000471115	-0.032700635195986
1.8070000410080	-0.042304656856794
1.8084000349045	-0.052258143474386
1.8098000288010	-0.062363504770428
1.8112000226974	-0.072422384411848
1.8126000165939	-0.082239212610341
1.8140000104904	-0.091622713464682
1.8154000043869	-0.10039351837618
1.8167999982834	-0.10838390584880
1.8181999921799	-0.11544540200388
1.8195999860764	-0.12144701309563
1.8209999799728	-0.12628354768802
1.8223999738693	-0.12987054579208
1.8237999677658	-0.13215312745489
1.8251999616623	-0.13310133125670
1.8265999555588	-0.13271327391467
1.8279999494553	-0.13101547882699
1.8293999433517	-0.12805781337952
1.8308000564575	-0.12391853522090
1.8322000503540	-0.11869616141588
1.8336000442505	-0.11250909009263
1.8350000381470	-0.10549648013368
1.8364000320435	-0.097805406558169
1.8378000259399	-0.089599116974756
1.8392000198364	-0.081048300462153
1.8406000137329	-0.072321240330250
1.8420000076294	-0.063592527584803
1.8434000015259	-0.055031578170833
1.8447999954224	-0.046800398073447
1.8461999893188	-0.039052790904497
1.8475999832153	-0.031930247075392
1.8489999771118	-0.025559828656086
1.8503999710083	-0.020052086790694
1.8517999649048	-0.015500515311530
1.8531999588013	-0.011976513294896
1.8545999526978	-0.0095333361179626
1.8559999465942	-0.0082044794162458
1.8573999404907	-0.0079998139152489
1.8588000535965	-0.0089079225846195
1.8602000474930	-0.010898628191385
1.8616000413895	-0.013922054832422
1.8630000352859	-0.017907909586089
1.8644000291824	-0.022769244227456
1.8658000230789	-0.028403904121397
1.8672000169754	-0.034695574751703
1.8686000108719	-0.041516779699410
1.8700000047684	-0.048729768362584
1.8713999986649	-0.056190977313436
1.8727999925613	-0.063755338048821
1.8741999864578	-0.071273691307493
1.8755999803543	-0.078600168076751
1.8769999742508	-0.085592380356358
1.8783999681473	-0.092117839963380
1.8797999620438	-0.098052079081044
1.8811999559402	-0.10328507131964
1.8825999498367	-0.10771978255611
1.8839999437332	-0.11127715323962
1.8854000568390	-0.11389616822214
1.8868000507355	-0.11553520208025
1.8882000446320	-0.11617217369320
1.8896000385284	-0.11580656344923
1.8910000324249	-0.11445705805196
1.8924000263214	-0.11216196386397
1.8938000202179	-0.10897781919338
1.8952000141144	-0.10497947826719
1.8966000080109	-0.10025511293103
1.8980000019073	-0.094908856731817
1.8993999958038	-0.089052097212805
1.9007999897003	-0.082807509142013
1.9021999835968	-0.076302815660759
1.9035999774933	-0.069668462325929
1.9049999713898	-0.063036111810806
1.9063999652863	-0.056534401679319
1.9077999591827	-0.050289034114398
1.9091999530792	-0.044417132600314
1.9105999469757	-0.039029321489006
1.9119999408722	-0.034222352017823
1.9134000539780	-0.030082512590287
1.9148000478745	-0.026682244113875
1.9162000417709	-0.024080121297361
1.9176000356674	-0.022316530685823
1.9190000295639	-0.021418180139296
1.9204000234604	-0.021390990487007
1.9218000173569	-0.022232404573627
1.9232000112534	-0.023914275142089
1.9246000051498	-0.026399579048878
1.9259999990463	-0.029633953725852
1.9273999929428	-0.033550249533768
1.9287999868393	-0.038066515754634
1.9301999807358	-0.043093526812800
1.9315999746323	-0.048531350946901
1.9329999685287	-0.054271556544049
1.9343999624252	-0.060202655468433
1.9357999563217	-0.066209828475402
1.9371999502182	-0.072176475296131
1.9385999441147	-0.077987668509942
1.9400000572205	-0.083534228072172
1.9414000511169	-0.088710687469287
1.9428000450134	-0.093417864449335
1.9442000389099	-0.097569479958157
1.9456000328064	-0.10109175826524
1.9470000267029	-0.10392033048877
1.9484000205994	-0.10600697060934
1.9498000144958	-0.10731884665826
1.9512000083923	-0.10783861857392
1.9526000022888	-0.10756426646591
1.9539999961853	-0.10651175232968
1.9553999900818	-0.10470859056508
1.9567999839783	-0.10220124174146
1.9581999778748	-0.099047475990053
1.9595999717712	-0.095315897591613
1.9609999656677	-0.091089673525234
1.9623999595642	-0.086457754918720
1.9637999534607	-0.081516509223744
1.9651999473572	-0.076367514340657
1.9665999412537	-0.071117567603056
1.9680000543594	-0.065870624011088
1.9694000482559	-0.060728830318678
1.9708000421524	-0.055796287553229
1.9722000360489	-0.051166605694115
1.9736000299454	-0.046929556436094
1.9750000238419	-0.043166141349605
1.9764000177383	-0.039944606437272
1.9778000116348	-0.037327247669939
1.9792000055313	-0.035358490095536
1.9805999994278	-0.034075323651267
1.9819999933243	-0.033498453183441
1.9833999872208	-0.033637198909865
1.9847999811172	-0.034483086718363
1.9861999750137	-0.036020884270255
1.9875999689102	-0.038216897557801
1.9889999628067	-0.041027387196159
1.9903999567032	-0.044397152758881
1.9917999505997	-0.048260909173563
1.9931999444962	-0.052544329565040
1.9946000576019	-0.057164201846430
1.9960000514984	-0.062032634199529
1.9974000453949	-0.067058778447557
1.9988000392914	-0.072143986453318
2.0002000331879	-0.077194058660500
2.0016000270844	-0.082116232476360
2.0030000209808	-0.086814344212758
2.0044000148773	-0.091203803626174
2.0058000087738	-0.095204803031400
2.0072000026703	-0.098741584316037
2.0085999965668	-0.10175376401925
2.0099999904633	-0.10418621893966
2.0113999843597	-0.10600181300862
2.0127999782562	-0.10716947001343
2.0141999721527	-0.10767466511008
2.0155999660492	-0.10751854650767
2.0169999599457	-0.10670838644080
2.0183999538422	-0.10527117409881
2.0197999477386	-0.10324320995038
2.0211999416351	-0.10067226942377
2.0225999355316	-0.097618610719888
2.0239999294281	-0.094146985050407
2.0253999233246	-0.090336133791329
2.0267999172211	-0.086267296546051
2.0281999111176	-0.082024964286981
2.0295999050140	-0.077699796382926
2.0309998989105	-0.073380628224004
2.0323998928070	-0.069155295087022
2.0337998867035	-0.065111967934239
2.0352001190186	-0.061332662746653
2.0366001129150	-0.057893665140324
2.0380001068115	-0.054865155441449
2.0394001007080	-0.052307432294622
2.0408000946045	-0.050273414854569
2.0422000885010	-0.048805302125007
2.0436000823975	-0.047932926402995
2.0450000762939	-0.047676629522413
2.0464000701904	-0.048043919571659
2.0478000640869	-0.049030791116306
2.0492000579834	-0.050621654262761
2.0506000518799	-0.052790656618447
2.0520000457764	-0.055498231054188
2.0534000396729	-0.058699439369698
2.0548000335693	-0.062334620409733
2.0562000274658	-0.066341965581629
2.0576000213623	-0.070646305909997
2.0590000152588	-0.075172457957548
2.0604000091553	-0.079841173370443
2.0618000030518	-0.084565501443849
2.0631999969482	-0.089262038562364
2.0645999908447	-0.093846781469304
2.0659999847412	-0.098239122311149
2.0673999786377	-0.10236086458302
2.0687999725342	-0.10613964461637
2.0701999664307	-0.10951244074750
2.0715999603271	-0.11242056170919
2.0729999542236	-0.11481710333861
2.0743999481201	-0.11666592193622
2.0757999420166	-0.11794022060386
2.0771999359131	-0.11862549062131
2.0785999298096	-0.11871915283085
2.0799999237061	-0.11823238371189
2.0813999176025	-0.11718290731848
2.0827999114990	-0.11560516788947
2.0841999053955	-0.11354060608479
2.0855998992920	-0.11104145646869
2.0869998931885	-0.10816804331548
2.0883998870850	-0.10498924299672
2.0897998809814	-0.10157737862486
2.0912001132965	-0.098009488072832
2.0926001071930	-0.094367066638146
2.0940001010895	-0.090731802474308
2.0954000949860	-0.087185222302923
2.0968000888824	-0.083805650445484
2.0982000827789	-0.080669817755296
2.0996000766754	-0.077848769973228
2.1010000705719	-0.075406235140983
2.1024000644684	-0.073402471659127
2.1038000583649	-0.071882995132762
2.1052000522614	-0.070890107150178
2.1066000461578	-0.070453272709736
2.1080000400543	-0.070592736505800
2.1094000339508	-0.071314806356735
2.1108000278473	-0.072619986066865
2.1122000217438	-0.074494505135016
2.1136000156403	-0.076914701194300
2.1150000095367	-0.079847789606461
2.1164000034332	-0.083249610805850
2.1177999973297	-0.087068670537976
2.1191999912262	-0.091245726601059
2.1205999851227	-0.095713674459687
2.1219999790192	-0.10040188099293
2.1233999729156	-0.10523459620207
2.1247999668121	-0.11013205886491
2.1261999607086	-0.11501543308796
2.1275999546051	-0.11980619774418
2.1289999485016	-0.12442801568461
2.1303999423981	-0.12880407329149
2.1317999362946	-0.13286780040197
2.1331999301910	-0.13655718529193
2.1345999240875	-0.13981504620351
2.1359999179840	-0.14259717068629
2.1373999118805	-0.14486653547296
2.1387999057770	-0.14659661724882
2.1401998996735	-0.14777283819416
2.1415998935699	-0.14839095851950
2.1429998874664	-0.14845982196054
2.1443998813629	-0.14799620146553
2.1458001136780	-0.14703145988878
2.1472001075745	-0.14560511622069
2.1486001014709	-0.14376507258574
2.1500000953674	-0.14157183649530
2.1514000892639	-0.13908873690453
2.1528000831604	-0.13638819263535
2.1542000770569	-0.13354475572887
2.1556000709534	-0.13063748120340
2.1570000648499	-0.12774699325463
2.1584000587463	-0.12495357159883
2.1598000526428	-0.12233642229263
2.1612000465393	-0.11997078439057
2.1626000404358	-0.11792870206878
2.1640000343323	-0.11627572301420
2.1654000282288	-0.11506956253914
2.1668000221252	-0.11436329553960
2.1682000160217	-0.11419594814791
2.1696000099182	-0.11460148902558
2.1710000038147	-0.11560219879129
2.1723999977112	-0.11720825264740
2.1737999916077	-0.11942056822073
2.1751999855042	-0.12222736565547
2.1765999794006	-0.12560827806751
2.1779999732971	-0.12953157699696
2.1793999671936	-0.13395667805502
2.1807999610901	-0.13883029212011
2.1821999549866	-0.14409730692725
2.1835999488831	-0.14968817105577
2.1849999427795	-0.15553320780987
2.1863999366760	-0.16155530254443
2.1877999305725	-0.16767456401513
2.1891999244690	-0.17381037578938
2.1905999183655	-0.17988052545250
2.1919999122620	-0.18580476586967
2.1933999061584	-0.19150686157383
2.1947999000549	-0.19691433511805
2.1961998939514	-0.20196098984441
2.1975998878479	-0.20658815132168
2.1989998817444	-0.21074715980378
2.2004001140594	-0.21439636079732
2.2018001079559	-0.21750735895913
2.2032001018524	-0.22006211719443
2.2046000957489	-0.22205538385061
2.2060000896454	-0.22349213798938
2.2074000835419	-0.22439238137024
2.2088000774384	-0.22478343594744
2.2102000713348	-0.22470946750845
2.2116000652313	-0.22422135146858
2.2130000591278	-0.22337924760310
2.2144000530243	-0.22225355475807
2.2158000469208	-0.22092141966199
2.2172000408173	-0.21946454188767
2.2186000347137	-0.21797019382058
2.2200000286102	-0.21652587449111
2.2214000225067	-0.21522118214319
2.2228000164032	-0.21414556182778
2.2242000102997	-0.21338535041440
2.2256000041962	-0.21302250418872
2.2269999980927	-0.21313268017254
2.2283999919891	-0.21378622514511
2.2297999858856	-0.21504393879275
2.2311999797821	-0.21695847340634
2.2325999736786	-0.21957096387679
2.2339999675751	-0.22291358366010
2.2353999614716	-0.22700527020962
2.2367999553680	-0.23185289153806
2.2381999492645	-0.23745157566938
2.2395999431610	-0.24378530232125
2.2409999370575	-0.25082637180091
2.2423999309540	-0.25853299061663
2.2437999248505	-0.26685531205406
2.2451999187469	-0.27573430108024
2.2465999126434	-0.28509875980730
2.2479999065399	-0.29487385528295
2.2493999004364	-0.30497688076669
2.2507998943329	-0.31531900628442
2.2521998882294	-0.32581071041543
2.2535998821259	-0.33636123077198
2.2550001144409	-0.34688012378376
2.2564001083374	-0.35727894599846
2.2578001022339	-0.36747389944015
2.2592000961304	-0.37738745859828
2.2606000900269	-0.38695160329130
2.2620000839233	-0.39610567760980
2.2634000778198	-0.40480167632754
2.2648000717163	-0.41300385257901
2.2662000656128	-0.42068879908477
2.2676000595093	-0.42784811123554
2.2690000534058	-0.43448884154165
2.2704000473022	-0.44063297293494
2.2718000411987	-0.44631489772753
2.2732000350952	-0.45158663926455
2.2746000289917	-0.45651316320363
2.2760000228882	-0.46117150870146
2.2774000167847	-0.46565159217558
2.2788000106812	-0.47005236812843
2.2802000045776	-0.47448318803575
2.2815999984741	-0.47905967404035
2.2829999923706	-0.48390296249460
2.2843999862671	-0.48913473337178
2.2857999801636	-0.49488342244690
2.2871999740601	-0.50127033612418
2.2885999679565	-0.50841791117101
2.2899999618530	-0.51644476261928
2.2913999557495	-0.52545849641456
2.2927999496460	-0.53556459687807
2.2941999435425	-0.54685344896605
2.2955999374390	-0.55940878263580
2.2969999313354	-0.57329956988823
2.2983999252319	-0.58858335405204
2.2997999191284	-0.60530240852087
2.3011999130249	-0.62348621255820
2.3025999069214	-0.64315033836565
2.3039999008179	-0.66429260608605
2.3053998947144	-0.68690102817975
2.3067998886108	-0.71094875772351
2.3081998825073	-0.73639270900396
2.3096001148224	-0.76318430483018
2.3110001087189	-0.79125863406596
2.3124001026154	-0.82054484005932
2.3138000965118	-0.85096536345259
2.3152000904083	-0.88243839705446
2.3166000843048	-0.91487588922318
2.3180000782013	-0.94819921960687
2.3194000720978	-0.98232137887465
2.3208000659943	-1.0171686892303
2.3222000598907	-1.0526738411406
2.3236000537872	-1.0887820437889
2.3250000476837	-1.1254515510149
2.3264000415802	-1.1626623496309
2.3278000354767	-1.2004096150292
2.3292000293732	-1.2387150993830
2.3306000232697	-1.2776262885885
2.3320000171661	-1.3172154455717
2.3334000110626	-1.3575878374835
2.3348000049591	-1.3988735899184
2.3361999988556	-1.4412388039067
2.3375999927521	-1.4848818429024
2.3389999866486	-1.5300316073965
2.3403999805450	-1.5769481153355
2.3417999744415	-1.6259260414418
2.3431999683380	-1.6772915780553
2.3445999622345	-1.7313956914908
2.3459999561310	-1.7886264163720
2.3473999500275	-1.8493935011118
2.3487999439240	-1.9141354357712
2.3501999378204	-1.9833174834661
2.3515999317169	-2.0574292395872
2.3529999256134	-2.1369838888484
2.3543999195099	-2.2225189475329
2.3557999134064	-2.3145993800008
2.3571999073029	-2.4138053872486
2.3585999011993	-2.5207522975119
2.3599998950958	-2.6360746849692
2.3613998889923	-2.7604382387443
2.3627998828888	-2.8945433956340
2.3642001152039	-3.0391192602894
2.3656001091003	-3.1949408940414
2.3670001029968	-3.3628240048675
2.3684000968933	-3.5436383124045
2.3698000907898	-3.7383170401283
2.3712000846863	-3.9478609653035
2.3726000785828	-4.1733549519311
2.3740000724792	-4.4159806682069
2.3754000663757	-4.6770387653571
2.3768000602722	-4.9579665286716
2.3782000541687	-5.2603654236596
2.3796000480652	-5.5860319774005
2.3810000419617	-5.9370076378143
2.3824000358582	-6.3156211391210
2.3838000297546	-6.7245547281883
2.3852000236511	-7.1669344885691
2.3866000175476	-7.6464338497659
2.3880000114441	-8.1674186085575
2.3894000053406	-8.7351376889998
2.3907999992371	-9.3559848460908
2.3921999931335	-10.037851292389
2.3935999870300	-10.790634165809
2.3949999809265	-11.626947641205
2.3963999748230	-12.563169712444
2.3977999687195	-13.620957613453
2.3991999626160	-14.829483883666
2.4005999565125	-16.228489987483
2.4019999504089	-17.871465476148
2.4033999443054	-19.823292104389
2.4047999382019	-22.120683887550
2.4061999320984	-24.544506245683
2.4075999259949	-25.930802998583
2.4089999198914	-24.872316188988
2.4103999137878	-22.508434284282
2.4117999076843	-20.179298629563
2.4131999015808	-18.190099553168
2.4145998954773	-16.518941768643
2.4159998893738	-15.100758033872
2.4173998832703	-13.879906796075
2.4188001155853	-12.814776570272
2.4202001094818	-11.874834762931
2.4216001033783	-11.037450694161
2.4230000972748	-10.285563780281
2.4244000911713	-9.6060592368555
2.4258000850677	-8.9886708313332
2.4272000789642	-8.4252262874323
2.4286000728607	-7.9091168919388
2.4300000667572	-7.4349217009778
2.4314000606537	-6.9981366855413
2.4328000545502	-6.5949737447476
2.4342000484467	-6.2222136104921
2.4356000423431	-5.8770899919425
2.4370000362396	-5.5572057985318
2.4384000301361	-5.2604569337835
2.4398000240326	-4.9849934491656
2.4412000179291	-4.7291637608526
2.4426000118256	-4.4914878695836
2.4440000057220	-4.2706260808354
2.4453999996185	-4.0653618827942
2.4467999935150	-3.8745759028008
2.4481999874115	-3.6972412996416
2.4495999813080	-3.5324011871871
2.4509999752045	-3.3791651590887
2.4523999691010	-3.2366969099482
2.4537999629974	-3.1042115250484
2.4551999568939	-2.9809672965026
2.4565999507904	-2.8662623300616
2.4579999446869	-2.7594272177342
2.4593999385834	-2.6598297132865
2.4607999324799	-2.5668689081635
2.4621999263763	-2.4799703049572
2.4635999202728	-2.3985925248894
2.4649999141693	-2.3222203590496
2.4663999080658	-2.2503676262870
2.4677999019623	-2.1825761394596
2.4691998958588	-2.1184205370897
2.4705998897552	-2.0575016931018
2.4719998836517	-1.9994493826828
2.4734001159668	-1.9439269340514
2.4748001098633	-1.8906294710795
2.4762001037598	-1.8392810739313
2.4776000976562	-1.7896374116332
2.4790000915527	-1.7414859543448
2.4804000854492	-1.6946450781922
2.4818000793457	-1.6489640523825
2.4832000732422	-1.6043185751186
2.4846000671387	-1.5606142086168
2.4860000610352	-1.5177804721304
2.4874000549316	-1.4757715721282
2.4888000488281	-1.4345661196657
2.4902000427246	-1.3941577842518
2.4916000366211	-1.3545598437369
2.4930000305176	-1.3158000023554
2.4944000244141	-1.2779170461819
2.4958000183105	-1.2409584273726
2.4972000122070	-1.2049787807340
2.4986000061035	-1.1700382075320
2.5000000000000	-1.1361961799205
2.5013999938965	-1.1035099775586
2.5027999877930	-1.0720379613913
2.5041999816895	-1.0418319450246
2.5055999755859	-1.0129353977769
2.5069999694824	-0.98538925468261
2.5083999633789	-0.95922031992969
2.5097999572754	-0.93444629355624
2.5111999511719	-0.91107640876494
2.5125999450684	-0.88910574279081
2.5139999389648	-0.86852205423322
2.5153999328613	-0.84929695515638
2.5167999267578	-0.83139317849556
2.5181999206543	-0.81476173248560
2.5195999145508	-0.79934375266982
2.5209999084473	-0.78507125768689
2.5223999023438	-0.77186566712946
2.5237998962402	-0.75964235365945
2.5251998901367	-0.74831004112651
2.5265998840332	-0.73777310661323
2.5280001163483	-0.72793093915391
2.5294001102448	-0.71868149943352
2.5308001041412	-0.70991966643073
2.5322000980377	-0.70154569132515
2.5336000919342	-0.69345917705624
2.5350000858307	-0.68556511537483
2.5364000797272	-0.67777266507145
2.5378000736237	-0.66999656682454
2.5392000675201	-0.66216378384853
2.5406000614166	-0.65420696847199
2.5420000553131	-0.64606766109184
2.5434000492096	-0.63769997453229
2.5448000431061	-0.62906852726671
2.5462000370026	-0.62014891872547
2.5476000308990	-0.61092928727661
2.5490000247955	-0.60140629052255
2.5504000186920	-0.59159090042262
2.5518000125885	-0.58150178273380
2.5532000064850	-0.57116936301117
2.5546000003815	-0.56062985244105
2.5559999942780	-0.54992811839223
2.5573999881744	-0.53911776367318
2.5587999820709	-0.52825577352640
2.5601999759674	-0.51740039264294
2.5615999698639	-0.50661656867278
2.5629999637604	-0.49596803385053
2.5643999576569	-0.48551979007593
2.5657999515533	-0.47533068277352
2.5671999454498	-0.46546310628473
2.5685999393463	-0.45597429323654
2.5699999332428	-0.44691051979059
2.5713999271393	-0.43831763296083
2.5727999210358	-0.43023338462045
2.5741999149323	-0.42268841438557
2.5755999088287	-0.41570483750344
2.5769999027252	-0.40929736413971
2.5783998966217	-0.40347037599189
2.5797998905182	-0.39822264146441
2.5811998844147	-0.39354141031776
2.5826001167297	-0.38940730998262
2.5840001106262	-0.38579414608195
2.5854001045227	-0.38266609288300
2.5868000984192	-0.37998291676455
