#Parameters = {eR=4.7; CH=0.035; FL=16.5; FW=2.34; NotchLength=9.86; NotchWidth=1; PL=27.5; PW=40.5; SH=1.43; SL=61; SW=64; StripW=2.36; k=6.26}
#"Frequency / GHz"	"S1,1 (eR=4.7) [Magnitude]"
#---------------------------------------------
1.7999999523163	-6.4490734194379e-08
1.8013999462128	-2.4827321025379e-05
1.8028000593185	-0.0011578473440941
1.8042000532150	-0.0033617605277671
1.8056000471115	-0.0065868422442204
1.8070000410080	-0.010762767098751
1.8084000349045	-0.015803362236012
1.8098000288010	-0.021608953545689
1.8112000226974	-0.028068956804345
1.8126000165939	-0.035060710781523
1.8140000104904	-0.042454839907550
1.8154000043869	-0.050114801392115
1.8167999982834	-0.057900361481640
1.8181999921799	-0.065670856540153
1.8195999860764	-0.073286784628135
1.8209999799728	-0.080613843651625
1.8223999738693	-0.087523323159967
1.8237999677658	-0.093892555187111
1.8251999616623	-0.099614109233559
1.8265999555588	-0.10459082210202
1.8279999494553	-0.10874157544805
1.8293999433517	-0.11199986819849
1.8308000564575	-0.11431751067837
1.8322000503540	-0.11566476181523
1.8336000442505	-0.11602813013164
1.8350000381470	-0.11541335618422
1.8364000320435	-0.11384793654932
1.8378000259399	-0.11137052008206
1.8392000198364	-0.10804096587924
1.8406000137329	-0.10393039103758
1.8420000076294	-0.099127293371998
1.8434000015259	-0.093726093870067
1.8447999954224	-0.087836739880747
1.8461999893188	-0.081571942665107
1.8475999832153	-0.075050475628149
1.8489999771118	-0.068394382012709
1.8503999710083	-0.061726035533411
1.8517999649048	-0.055165954716746
1.8531999588013	-0.048830468365310
1.8545999526978	-0.042828012460995
1.8559999465942	-0.037262450605483
1.8573999404907	-0.032228511498774
1.8588000535965	-0.027806235761023
1.8602000474930	-0.024068931629288
1.8616000413895	-0.021072643018003
1.8630000352859	-0.018860136582789
1.8644000291824	-0.017462792109898
1.8658000230789	-0.016896675030301
1.8672000169754	-0.017160643099714
1.8686000108719	-0.018242423772849
1.8700000047684	-0.020114055531172
1.8713999986649	-0.022732522664856
1.8727999925613	-0.026046209507497
1.8741999864578	-0.029989983590097
1.8755999803543	-0.034486900579019
1.8769999742508	-0.039452922259113
1.8783999681473	-0.044796071805495
1.8797999620438	-0.050418190497426
1.8811999559402	-0.056216818644256
1.8825999498367	-0.062087396098823
1.8839999437332	-0.067924955668847
1.8854000568390	-0.073625891284070
1.8868000507355	-0.079088972690378
1.8882000446320	-0.084220362606132
1.8896000385284	-0.088929920981118
1.8910000324249	-0.093137793904050
1.8924000263214	-0.096773348908021
1.8938000202179	-0.099777792209462
1.8952000141144	-0.10210311747467
1.8966000080109	-0.10371523653343
1.8980000019073	-0.10459245303574
1.8993999958038	-0.10472939825805
1.9007999897003	-0.10413139217158
1.9021999835968	-0.10281781115214
1.9035999774933	-0.10082297467721
1.9049999713898	-0.098190901335885
1.9063999652863	-0.094977705815621
1.9077999591827	-0.091251096463248
1.9091999530792	-0.087083027971714
1.9105999469757	-0.082558568984721
1.9119999408722	-0.077761804031203
1.9134000539780	-0.072786707602874
1.9148000478745	-0.067723148956026
1.9162000417709	-0.062666863660999
1.9176000356674	-0.057707280336473
1.9190000295639	-0.052935415771771
1.9204000234604	-0.048435771681186
1.9218000173569	-0.044285472007479
1.9232000112534	-0.040557827656344
1.9246000051498	-0.037314252499006
1.9259999990463	-0.034608143058805
1.9273999929428	-0.032485635673020
1.9287999868393	-0.030978238022202
1.9301999807358	-0.030108688758993
1.9315999746323	-0.029886096958275
1.9329999685287	-0.030312310213652
1.9343999624252	-0.031373748710417
1.9357999563217	-0.033047988766435
1.9371999502182	-0.035301282855415
1.9385999441147	-0.038090347603598
1.9400000572205	-0.041364195750837
1.9414000511169	-0.045061359037474
1.9428000450134	-0.049115433704622
1.9442000389099	-0.053451102634479
1.9456000328064	-0.057992598457730
1.9470000267029	-0.062658842180541
1.9484000205994	-0.067366584622485
1.9498000144958	-0.072032742436252
1.9512000083923	-0.076577819447513
1.9526000022888	-0.080920547457394
1.9539999961853	-0.084986228123895
1.9553999900818	-0.088707918987490
1.9567999839783	-0.092021848017715
1.9581999778748	-0.094872298870694
1.9595999717712	-0.097213593981528
1.9609999656677	-0.099010862971718
1.9623999595642	-0.10023619116285
1.9637999534607	-0.10087590457779
1.9651999473572	-0.10092431853461
1.9665999412537	-0.10038881660812
1.9680000543594	-0.099286299439611
1.9694000482559	-0.097642992292910
1.9708000421524	-0.095496000086463
1.9722000360489	-0.092892778075402
1.9736000299454	-0.089885042288576
1.9750000238419	-0.086533371148465
1.9764000177383	-0.082905825361224
1.9778000116348	-0.079071476725160
1.9792000055313	-0.075103696940779
1.9805999994278	-0.071079144522549
1.9819999933243	-0.067072371966476
1.9833999872208	-0.063158023684561
1.9847999811172	-0.059407499866946
1.9861999750137	-0.055889840528575
1.9875999689102	-0.052668168428671
1.9889999628067	-0.049802074798056
1.9903999567032	-0.047339421078391
1.9917999505997	-0.045327286193055
1.9931999444962	-0.043798809628584
1.9946000576019	-0.042781881518209
1.9960000514984	-0.042292624074237
1.9974000453949	-0.042339351407432
1.9988000392914	-0.042921552147826
2.0002000331879	-0.044028805962066
2.0016000270844	-0.045639433786992
2.0030000209808	-0.047725725147019
2.0044000148773	-0.050252665786792
2.0058000087738	-0.053175983428672
2.0072000026703	-0.056443557791246
2.0085999965668	-0.059998091126036
2.0099999904633	-0.063781125319193
2.0113999843597	-0.067725501572213
2.0127999782562	-0.071764548882972
2.0141999721527	-0.075828105274822
2.0155999660492	-0.079848096199993
2.0169999599457	-0.083754744381439
2.0183999538422	-0.087484156860545
2.0197999477386	-0.090973755977498
2.0211999416351	-0.094165689192173
2.0225999355316	-0.097007813445457
2.0239999294281	-0.099454716849934
2.0253999233246	-0.10146871919675
2.0267999172211	-0.10302021428818
2.0281999111176	-0.10408690627915
2.0295999050140	-0.10465752119842
2.0309998989105	-0.10472955138678
2.0323998928070	-0.10430755370704
2.0337998867035	-0.10340819386028
2.0352001190186	-0.10205437474607
2.0366001129150	-0.10027869275836
2.0380001068115	-0.098120525657812
2.0394001007080	-0.095625283176589
2.0408000946045	-0.092846883756010
2.0422000885010	-0.089840771166703
2.0436000823975	-0.086666429117708
2.0450000762939	-0.083390972795920
2.0464000701904	-0.080075260145157
2.0478000640869	-0.076787189979461
2.0492000579834	-0.073588913561807
2.0506000518799	-0.070543537510644
2.0520000457764	-0.067710528498608
2.0534000396729	-0.065143761143955
2.0548000335693	-0.062893911973206
2.0562000274658	-0.061007109169855
2.0576000213623	-0.059516621855570
2.0590000152588	-0.058456100459800
2.0604000091553	-0.057847885677907
2.0618000030518	-0.057707031107791
2.0631999969482	-0.058038720855530
2.0645999908447	-0.058843202668846
2.0659999847412	-0.060109429802910
2.0673999786377	-0.061820655553948
2.0687999725342	-0.063949376342260
2.0701999664307	-0.066466281581032
2.0715999603271	-0.069330014495493
2.0729999542236	-0.072496471328424
2.0743999481201	-0.075913167634129
2.0757999420166	-0.079527524980414
2.0771999359131	-0.083281088588411
2.0785999298096	-0.087112325031603
2.0799999237061	-0.090961987255178
2.0813999176025	-0.094767807522410
2.0827999114990	-0.098467343047427
2.0841999053955	-0.10200310163594
2.0855998992920	-0.10532073846511
2.0869998931885	-0.10836809920612
2.0883998870850	-0.11109829678103
2.0897998809814	-0.11346950495890
2.0912001132965	-0.11545265381602
2.0926001071930	-0.11701793100522
2.0940001010895	-0.11814577775298
2.0954000949860	-0.11882784897133
2.0968000888824	-0.11906014000788
2.0982000827789	-0.11884998209350
2.0996000766754	-0.11821096689333
2.1010000705719	-0.11716386008047
2.1024000644684	-0.11574106036889
2.1038000583649	-0.11397575225731
2.1052000522614	-0.11191203276237
2.1066000461578	-0.10959789440144
2.1080000400543	-0.10708547949378
2.1094000339508	-0.10443062344554
2.1108000278473	-0.10169013136491
2.1122000217438	-0.098926753118314
2.1136000156403	-0.096197962670215
2.1150000095367	-0.093565933490666
2.1164000034332	-0.091085340381167
2.1177999973297	-0.088813784613600
2.1191999912262	-0.086800122021602
2.1205999851227	-0.085092091117967
2.1219999790192	-0.083730954309207
2.1233999729156	-0.082751300853495
2.1247999668121	-0.082181940431539
2.1261999607086	-0.082045951761970
2.1275999546051	-0.082354077697411
2.1289999485016	-0.083115711218720
2.1303999423981	-0.084327207222185
2.1317999362946	-0.085981576459917
2.1331999301910	-0.088060183647741
2.1345999240875	-0.090541013165929
2.1359999179840	-0.093391479377570
2.1373999118805	-0.096574077336597
2.1387999057770	-0.10004767063080
2.1401998996735	-0.10376493956870
2.1415998935699	-0.10767118055657
2.1429998874664	-0.11171204289105
2.1443998813629	-0.11583138987756
2.1458001136780	-0.11996860755283
2.1472001075745	-0.12406664305899
2.1486001014709	-0.12806574816760
2.1500000953674	-0.13190916670748
2.1514000892639	-0.13554453225280
2.1528000831604	-0.13892292233430
2.1542000770569	-0.14199709417044
2.1556000709534	-0.14473084936759
2.1570000648499	-0.14709009820038
2.1584000587463	-0.14904888435787
2.1598000526428	-0.15058934004104
2.1612000465393	-0.15170071103891
2.1626000404358	-0.15238191654780
2.1640000343323	-0.15263776129155
2.1654000282288	-0.15248351883596
2.1668000221252	-0.15193947763975
2.1682000160217	-0.15103551541480
2.1696000099182	-0.14980711358879
2.1710000038147	-0.14829703641101
2.1723999977112	-0.14655286697551
2.1737999916077	-0.14462621537135
2.1751999855042	-0.14257273813109
2.1765999794006	-0.14045201465007
2.1779999732971	-0.13832277074244
2.1793999671936	-0.13624599747120
2.1807999610901	-0.13428256176967
2.1821999549866	-0.13248894780802
2.1835999488831	-0.13092344263882
2.1849999427795	-0.12963572909066
2.1863999366760	-0.12867445852845
2.1877999305725	-0.12808270774800
2.1891999244690	-0.12789716499962
2.1905999183655	-0.12814652207470
2.1919999122620	-0.12885329127746
2.1933999061584	-0.13003390907471
2.1947999000549	-0.13169508548206
2.1961998939514	-0.13383787528874
2.1975998878479	-0.13645173538130
2.1989998817444	-0.13952243674556
2.2004001140594	-0.14302468737937
2.2018001079559	-0.14692812231211
2.2032001018524	-0.15119564609792
2.2046000957489	-0.15578374320363
2.2060000896454	-0.16064325697493
2.2074000835419	-0.16572082426214
2.2088000774384	-0.17095960150428
2.2102000713348	-0.17630046527012
2.2116000652313	-0.18168060307141
2.2130000591278	-0.18704101822833
2.2144000530243	-0.19231735381037
2.2158000469208	-0.19745372294996
2.2172000408173	-0.20239156304921
2.2186000347137	-0.20707955649451
2.2200000286102	-0.21146863038523
2.2214000225067	-0.21552011829365
2.2228000164032	-0.21919535495687
2.2242000102997	-0.22246854314015
2.2256000041962	-0.22531976119936
2.2269999980927	-0.22773649364143
2.2283999919891	-0.22971881916694
2.2297999858856	-0.23127053376707
2.2311999797821	-0.23240771357759
2.2325999736786	-0.23315389196170
2.2339999675751	-0.23353992616842
2.2353999614716	-0.23360672023016
2.2367999553680	-0.23339933807887
2.2381999492645	-0.23297038090785
2.2395999431610	-0.23237926770372
2.2409999370575	-0.23168745886068
2.2423999309540	-0.23095972621726
2.2437999248505	-0.23026472880057
2.2451999187469	-0.22967137071792
2.2465999126434	-0.22924626321664
2.2479999065399	-0.22905877832685
2.2493999004364	-0.22917228139319
2.2507998943329	-0.22964794101123
2.2521998882294	-0.23054231779044
2.2535998821259	-0.23190597973530
2.2550001144409	-0.23378466394446
2.2564001083374	-0.23621362046683
2.2578001022339	-0.23922312679973
2.2592000961304	-0.24283548765932
2.2606000900269	-0.24706259703888
2.2620000839233	-0.25190808650787
2.2634000778198	-0.25736754848248
2.2648000717163	-0.26342426259929
2.2662000656128	-0.27005991304893
2.2676000595093	-0.27723818576004
2.2690000534058	-0.28492376498486
2.2704000473022	-0.29306860423332
2.2718000411987	-0.30161993771415
2.2732000350952	-0.31051906975350
2.2746000289917	-0.31970235744974
2.2760000228882	-0.32910454774858
2.2774000167847	-0.33865483403933
2.2788000106812	-0.34828434532782
2.2802000045776	-0.35792246700352
2.2815999984741	-0.36750094310617
2.2829999923706	-0.37695430499666
2.2843999862671	-0.38622038315014
2.2857999801636	-0.39524653310791
2.2871999740601	-0.40397908604561
2.2885999679565	-0.41238158443088
2.2899999618530	-0.42041808192272
2.2913999557495	-0.42806791548623
2.2927999496460	-0.43531703688950
2.2941999435425	-0.44216482393066
2.2955999374390	-0.44862187660269
2.2969999313354	-0.45470734293358
2.2983999252319	-0.46045415284827
2.2997999191284	-0.46590577157836
2.3011999130249	-0.47111532516906
2.3025999069214	-0.47614560763289
2.3039999008179	-0.48106787302582
2.3053998947144	-0.48596418160902
2.3067998886108	-0.49092043234738
2.3081998825073	-0.49602694747333
2.3096001148224	-0.50138161975342
2.3110001087189	-0.50708401788869
2.3124001026154	-0.51323404585959
2.3138000965118	-0.51993108681228
2.3152000904083	-0.52727411950408
2.3166000843048	-0.53535755867610
2.3180000782013	-0.54427485988020
2.3194000720978	-0.55410933798466
2.3208000659943	-0.56494259737457
2.3222000598907	-0.57684451610945
2.3236000537872	-0.58987775649483
2.3250000476837	-0.60409442911673
2.3264000415802	-0.61953924246450
2.3278000354767	-0.63624303213593
2.3292000293732	-0.65422523053702
2.3306000232697	-0.67349924819322
2.3320000171661	-0.69406467779263
2.3334000110626	-0.71590768735599
2.3348000049591	-0.73900959364616
2.3361999988556	-0.76333660356972
2.3375999927521	-0.78885026022028
2.3389999866486	-0.81550211726196
2.3403999805450	-0.84323639250268
2.3417999744415	-0.87199631566446
2.3431999683380	-0.90171793579610
2.3445999622345	-0.93233767255200
2.3459999561310	-0.96378949142303
2.3473999500275	-0.99601275687663
2.3487999439240	-1.0289475783588
2.3501999378204	-1.0625433009479
2.3515999317169	-1.0967596292441
2.3529999256134	-1.1315627142216
2.3543999195099	-1.1669360192621
2.3557999134064	-1.2028768065389
2.3571999073029	-1.2393973438161
2.3585999011993	-1.2765347350783
2.3599998950958	-1.3143427210828
2.3613998889923	-1.3528980783362
2.3627998828888	-1.3923002093802
2.3642001152039	-1.4326800709437
2.3656001091003	-1.4741852825638
2.3670001029968	-1.5169955760673
2.3684000968933	-1.5613088760939
2.3698000907898	-1.6073602220375
2.3712000846863	-1.6554012596299
2.3726000785828	-1.7057114794820
2.3740000724792	-1.7585983311529
2.3754000663757	-1.8143884116755
2.3768000602722	-1.8734356297867
2.3782000541687	-1.9361147779874
2.3796000480652	-2.0028190338614
2.3810000419617	-2.0739703407642
2.3824000358582	-2.1500042921055
2.3838000297546	-2.2313822004034
2.3852000236511	-2.3185795931919
2.3866000175476	-2.4121024669674
2.3880000114441	-2.5124671268699
2.3894000053406	-2.6202212098468
2.3907999992371	-2.7359338983863
2.3921999931335	-2.8601989602667
2.3935999870300	-2.9936400188334
2.3949999809265	-3.1369126645965
2.3963999748230	-3.2907105989541
2.3977999687195	-3.4557683527954
2.3991999626160	-3.6328647451399
2.4005999565125	-3.8228396488401
2.4019999504089	-4.0265909608681
2.4033999443054	-4.2450943161472
2.4047999382019	-4.4794113141037
2.4061999320984	-4.7307081011505
2.4075999259949	-5.0002669730143
2.4089999198914	-5.2895211337340
2.4103999137878	-5.6000693965673
2.4117999076843	-5.9337228049377
2.4131999015808	-6.2925366857759
2.4145998954773	-6.6788800105227
2.4159998893738	-7.0954897671714
2.4173998832703	-7.5455749729531
2.4188001155853	-8.0329283624141
2.4202001094818	-8.5620899392089
2.4216001033783	-9.1385637634924
2.4230000972748	-9.7691189493332
2.4244000911713	-10.462214925528
2.4258000850677	-11.228624096978
2.4272000789642	-12.082359294103
2.4286000728607	-13.042123657394
2.4300000667572	-14.133629735015
2.4314000606537	-15.393560812579
2.4328000545502	-16.876663469922
2.4342000484467	-18.669313345667
2.4356000423431	-20.917347635289
2.4370000362396	-23.883693855849
2.4384000301361	-27.998879540034
2.4398000240326	-32.254422435485
2.4412000179291	-29.510869646427
2.4426000118256	-25.018531531049
2.4440000057220	-21.761859627973
2.4453999996185	-19.340352118565
2.4467999935150	-17.438388468639
2.4481999874115	-15.882311301943
2.4495999813080	-14.571494225127
2.4509999752045	-13.443393568372
2.4523999691010	-12.456753917498
2.4537999629974	-11.583015522093
2.4551999568939	-10.801623604922
2.4565999507904	-10.097303935531
2.4579999446869	-9.4583960084634
2.4593999385834	-8.8757966933847
2.4607999324799	-8.3422582921058
2.4621999263763	-7.8519126165275
2.4635999202728	-7.3999360856966
2.4649999141693	-6.9823115584223
2.4663999080658	-6.5956505220107
2.4677999019623	-6.2370670182349
2.4691998958588	-5.9040708540974
2.4705998897552	-5.5945033350271
2.4719998836517	-5.3064666945588
2.4734001159668	-5.0382840976524
2.4748001098633	-4.7884579841559
2.4762001037598	-4.5556491564523
2.4776000976562	-4.3386393406000
2.4790000915527	-4.1363215852056
2.4804000854492	-3.9476847505640
2.4818000793457	-3.7717882444923
2.4832000732422	-3.6077652735271
2.4846000671387	-3.4548073110307
2.4860000610352	-3.3121546160502
2.4874000549316	-3.1790946398252
2.4888000488281	-3.0549524673349
2.4902000427246	-2.9390889031732
2.4916000366211	-2.8308985658037
2.4930000305176	-2.7298046941948
2.4944000244141	-2.6352584067305
2.4958000183105	-2.5467360803529
2.4972000122070	-2.4637394234081
2.4986000061035	-2.3857932278319
2.5000000000000	-2.3124505349793
2.5013999938965	-2.2432824654845
2.5027999877930	-2.1778885920994
2.5041999816895	-2.1158901909224
2.5055999755859	-2.0569349857819
2.5069999694824	-2.0006940896059
2.5083999633789	-1.9468672226238
2.5097999572754	-1.8951744378491
2.5111999511719	-1.8453668741573
2.5125999450684	-1.7972203991007
2.5139999389648	-1.7505374323732
2.5153999328613	-1.7051444970234
2.5167999267578	-1.6608952250825
2.5181999206543	-1.6176675522184
2.5195999145508	-1.5753635025290
2.5209999084473	-1.5339085149863
2.5223999023438	-1.4932448190653
2.5237998962402	-1.4533401654701
2.5251998901367	-1.4141776442088
2.5265998840332	-1.3757535707970
2.5280001163483	-1.3380842233864
2.5294001102448	-1.3011919668324
2.5308001041412	-1.2651118289448
2.5322000980377	-1.2298858353664
2.5336000919342	-1.1955615452556
2.5350000858307	-1.1621900143958
2.5364000797272	-1.1298228243008
2.5378000736237	-1.0985133876318
2.5392000675201	-1.0683109081830
2.5406000614166	-1.0392617427552
2.5420000553131	-1.0114069933173
2.5434000492096	-0.98478221931477
2.5448000431061	-0.95941443591571
2.5462000370026	-0.93532496920236
2.5476000308990	-0.91252416406991
2.5490000247955	-0.89101226302882
2.5504000186920	-0.87078240393573
2.5518000125885	-0.85181650718131
2.5532000064850	-0.83408686542275
2.5546000003815	-0.81755552661112
2.5559999942780	-0.80217804664008
2.5573999881744	-0.78789730391568
2.5587999820709	-0.77465174004079
2.5601999759674	-0.76237188767431
2.5615999698639	-0.75097961053497
2.5629999637604	-0.74039557507753
2.5643999576569	-0.73052989598990
2.5657999515533	-0.72129755963948
2.5671999454498	-0.71260624306331
2.5685999393463	-0.70436325941405
2.5699999332428	-0.69647881956785
2.5713999271393	-0.68886420336477
2.5727999210358	-0.68143368977356
2.5741999149323	-0.67410630002918
2.5755999088287	-0.66680439806538
2.5769999027252	-0.65945926257953
2.5783998966217	-0.65200899729266
2.5797998905182	-0.64439938571673
2.5811998844147	-0.63658667396207
2.5826001167297	-0.62853280801890
2.5840001106262	-0.62021223546361
2.5854001045227	-0.61160941155452
